* Freq(Hz), SPL(dB)
20,97.971
20.144928,97.939
20.290907,97.909
20.437943,97.88
20.586044,97.851
20.73522,97.823
20.885475,97.794
21.036821,97.765
21.189262,97.735
21.342808,97.704
21.497467,97.671
21.653246,97.638
21.810154,97.603
21.968201,97.567
22.12739,97.53
22.287735,97.493
22.449242,97.457
22.611917,97.421
22.775772,97.386
22.940815,97.351
23.107054,97.318
23.274498,97.285
23.443153,97.253
23.613033,97.221
23.784142,97.189
23.956491,97.157
24.130091,97.125
24.304947,97.094
24.481071,97.062
24.65847,97.03
24.837156,96.997
25.017136,96.965
25.198421,96.932
25.38102,96.899
25.564941,96.865
25.750195,96.831
25.93679,96.795
26.124741,96.759
26.314051,96.721
26.504732,96.683
26.696796,96.644
26.890253,96.603
27.085112,96.563
27.281382,96.521
27.479073,96.48
27.678198,96.438
27.878765,96.396
28.080786,96.354
28.284271,96.312
28.489231,96.271
28.695675,96.229
28.903616,96.188
29.113064,96.146
29.324028,96.104
29.536524,96.062
29.750557,96.019
29.966141,95.976
30.183289,95.933
30.40201,95.89
30.622314,95.847
30.844217,95.805
31.067726,95.763
31.292856,95.722
31.519617,95.682
31.74802,95.641
31.978081,95.601
32.209808,95.56
32.443211,95.519
32.67831,95.479
32.915108,95.439
33.153625,95.401
33.393871,95.363
33.635857,95.328
33.879597,95.294
34.125103,95.262
34.372387,95.231
34.621464,95.2
34.872345,95.171
35.125042,95.141
35.379574,95.113
35.635948,95.085
35.89418,95.059
36.154285,95.034
36.416275,95.012
36.680161,94.992
36.945961,94.974
37.213688,94.958
37.483353,94.945
37.754974,94.933
38.028561,94.922
38.304131,94.913
38.581699,94.906
38.861279,94.9
39.142883,94.896
39.426529,94.894
39.712231,94.893
40,94.896
40.289856,94.901
40.581814,94.908
40.875885,94.919
41.172089,94.932
41.47044,94.948
41.77095,94.966
42.073643,94.987
42.378525,95.011
42.685616,95.038
42.994934,95.069
43.306492,95.104
43.620308,95.142
43.936401,95.182
44.25478,95.224
44.57547,95.267
44.898483,95.311
45.223835,95.357
45.551544,95.404
45.88163,95.453
46.214108,95.505
46.548996,95.558
46.886307,95.611
47.226067,95.665
47.568283,95.718
47.912983,95.77
48.260181,95.822
48.609894,95.873
48.962143,95.924
49.31694,95.974
49.674313,96.025
50.034271,96.075
50.396843,96.124
50.762039,96.174
51.129883,96.223
51.500389,96.272
51.873581,96.32
52.249481,96.369
52.628101,96.417
53.009464,96.466
53.393593,96.515
53.780506,96.564
54.170223,96.613
54.562763,96.663
54.958145,96.712
55.356396,96.762
55.75753,96.812
56.161572,96.862
56.568542,96.912
56.978462,96.963
57.39135,97.015
57.807232,97.067
58.226128,97.119
58.648056,97.172
59.073048,97.224
59.501114,97.276
59.932281,97.327
60.366577,97.378
60.80402,97.428
61.244629,97.478
61.688435,97.526
62.135452,97.573
62.585712,97.62
63.039234,97.664
63.49604,97.708
63.956161,97.75
64.419617,97.791
64.886421,97.832
65.356621,97.871
65.830215,97.91
66.307251,97.947
66.787743,97.982
67.271713,98.016
67.759193,98.048
68.250206,98.078
68.744774,98.106
69.242928,98.132
69.74469,98.156
70.250084,98.178
70.759148,98.198
71.271896,98.216
71.788361,98.231
72.308571,98.245
72.83255,98.257
73.360321,98.266
73.891922,98.273
74.427376,98.277
74.966705,98.28
75.509949,98.28
76.057121,98.279
76.608261,98.276
77.163399,98.27
77.722557,98.262
78.285767,98.252
78.853058,98.238
79.424461,98.223
80,98.205
80.579712,98.184
81.163628,98.162
81.75177,98.137
82.344177,98.109
82.94088,98.08
83.541901,98.048
84.147285,98.013
84.75705,97.977
85.371231,97.938
85.989868,97.897
86.612984,97.853
87.240616,97.807
87.872803,97.759
88.50956,97.708
89.15094,97.655
89.796967,97.6
90.44767,97.542
91.103088,97.482
91.76326,97.419
92.428215,97.353
93.097992,97.285
93.772614,97.214
94.452133,97.14
95.136566,97.064
95.825966,96.986
96.520363,96.904
97.219788,96.82
97.924286,96.733
98.633881,96.642
99.348625,96.549
100.068542,96.454
100.793686,96.355
101.524078,96.254
102.259766,96.15
103.000778,96.043
103.747162,95.933
104.498962,95.82
105.256203,95.704
106.018929,95.585
106.787186,95.462
107.561012,95.336
108.340446,95.207
109.125526,95.075
109.91629,94.94
110.712791,94.802
111.51506,94.661
112.323143,94.517
113.137085,94.371
113.956924,94.224
114.7827,94.075
115.614464,93.926
116.452255,93.776
117.296112,93.627
118.146095,93.479
119.002228,93.334
119.864563,93.192
120.733154,93.054
121.60804,92.922
122.489258,92.797
123.376869,92.679
124.270905,92.57
125.171425,92.47
126.078468,92.381
126.992081,92.302
127.912323,92.236
128.839233,92.18
129.772842,92.136
130.713242,92.101
131.660431,92.077
132.614502,92.061
133.575485,92.054
134.543427,92.055
135.518387,92.062
136.500412,92.076
137.489548,92.095
138.485855,92.117
139.48938,92.143
140.500168,92.17
141.518295,92.199
142.543793,92.228
143.576721,92.256
144.617142,92.284
145.6651,92.311
146.720642,92.336
147.783844,92.358
148.854752,92.379
149.933411,92.398
151.019897,92.415
152.114243,92.429
153.216522,92.442
154.326797,92.452
155.445114,92.46
156.571533,92.466
157.706116,92.469
158.848923,92.47
160,92.469
161.159424,92.466
162.327255,92.46
163.50354,92.454
164.688354,92.445
165.88176,92.436
167.083801,92.426
168.294571,92.415
169.514099,92.404
170.742462,92.392
171.979736,92.38
173.225967,92.368
174.481232,92.355
175.745605,92.343
177.019119,92.33
178.30188,92.317
179.593933,92.305
180.89534,92.294
182.206177,92.283
183.52652,92.274
184.85643,92.266
186.195984,92.259
187.545227,92.253
188.904266,92.247
190.273132,92.242
191.651932,92.237
193.040726,92.233
194.439575,92.229
195.848572,92.225
197.267761,92.222
198.69725,92.219
200.137085,92.216
201.587372,92.214
203.048157,92.212
204.519531,92.21
206.001556,92.206
207.494324,92.201
208.997925,92.194
210.512405,92.184
212.037857,92.171
213.574371,92.156
215.122025,92.137
216.680893,92.116
218.251053,92.092
219.832581,92.064
221.425583,92.033
223.030121,91.997
224.646286,91.958
226.27417,91.915
227.913849,91.87
229.565399,91.822
231.228928,91.774
232.90451,91.724
234.592224,91.674
236.292191,91.625
238.004456,91.576
239.729126,91.53
241.466309,91.486
243.21608,91.445
244.978516,91.407
246.753738,91.372
248.541809,91.34
250.34285,91.312
252.156937,91.285
253.984161,91.261
255.824646,91.239
257.678467,91.218
259.545685,91.198
261.426483,91.179
263.320862,91.16
265.229004,91.141
267.15097,91.122
269.086853,91.103
271.036774,91.084
273.000824,91.064
274.979095,91.043
276.97171,91.023
278.97876,91.002
281.000336,90.981
283.036591,90.96
285.087585,90.938
287.153442,90.916
289.234283,90.893
291.3302,90.868
293.441284,90.842
295.567688,90.814
297.709503,90.785
299.866821,90.754
302.039795,90.723
304.228485,90.692
306.433044,90.661
308.653595,90.632
310.890228,90.605
313.143066,90.582
315.412231,90.562
317.697845,90.547
320,90.537
322.318848,90.532
324.65451,90.531
327.00708,90.533
329.376709,90.536
331.763519,90.54
334.167603,90.542
336.589142,90.541
339.028198,90.538
341.484924,90.532
343.959473,90.524
346.451935,90.512
348.962463,90.499
351.491211,90.483
354.038239,90.465
356.60376,90.445
359.187866,90.424
361.79068,90.403
364.412354,90.38
367.05304,90.358
369.71286,90.335
372.391968,90.313
375.090454,90.293
377.808533,90.275
380.546265,90.258
383.303864,90.243
386.081451,90.23
388.87915,90.219
391.697144,90.208
394.535522,90.199
397.394501,90.19
400.27417,90.181
403.174744,90.173
406.096313,90.165
409.039062,90.159
412.003113,90.154
414.988647,90.151
417.99585,90.15
421.024811,90.151
424.075714,90.156
427.148743,90.163
430.244049,90.174
433.361786,90.188
436.502106,90.204
439.665161,90.223
442.851166,90.244
446.060242,90.268
449.292572,90.293
452.54834,90.32
455.827698,90.348
459.130798,90.378
462.457855,90.409
465.809021,90.442
469.184448,90.476
472.584381,90.512
476.008911,90.55
479.458252,90.59
482.932617,90.633
486.432159,90.678
489.957031,90.726
493.507477,90.776
497.083618,90.828
500.685699,90.882
504.313873,90.937
507.968323,90.994
511.649292,91.052
515.356934,91.111
519.09137,91.17
522.852966,91.23
526.641724,91.291
530.458008,91.351
534.301941,91.411
538.173706,91.47
542.073547,91.529
546.001648,91.588
549.958191,91.646
553.94342,91.704
557.95752,91.762
562.000671,91.822
566.073181,91.882
570.175171,91.943
574.306885,92.004
578.468567,92.067
582.6604,92.13
586.882568,92.194
591.135376,92.259
595.419006,92.324
599.733643,92.39
604.07959,92.456
608.45697,92.522
612.866089,92.588
617.30719,92.654
621.780457,92.721
626.286133,92.787
630.824463,92.853
635.395691,92.919
640,92.986
644.637695,93.052
649.309021,93.118
654.01416,93.184
658.753418,93.251
663.527039,93.318
668.335205,93.385
673.178284,93.452
678.056396,93.518
682.969849,93.583
687.918945,93.646
692.90387,93.708
697.924927,93.768
702.982422,93.827
708.076477,93.884
713.20752,93.939
718.375732,93.993
723.58136,94.046
728.824707,94.097
734.106079,94.146
739.42572,94.194
744.783936,94.24
750.180908,94.284
755.617065,94.327
761.092529,94.368
766.607727,94.407
772.162903,94.444
777.758301,94.478
783.394287,94.511
789.071045,94.541
794.789001,94.569
800.54834,94.594
806.349487,94.616
812.192627,94.636
818.078125,94.653
824.006226,94.667
829.977295,94.679
835.991699,94.687
842.049622,94.692
848.151428,94.694
854.297485,94.693
860.488098,94.688
866.723572,94.681
873.004211,94.67
879.330322,94.657
885.702332,94.64
892.120483,94.621
898.585144,94.598
905.09668,94.574
911.655396,94.547
918.261597,94.518
924.91571,94.488
931.618042,94.456
938.368896,94.423
945.168762,94.389
952.017822,94.356
958.916504,94.322
965.865234,94.29
972.864319,94.258
979.914062,94.227
987.014954,94.198
994.167236,94.17
1001.371399,94.145
1008.627747,94.123
1015.936646,94.104
1023.298584,94.087
1030.713867,94.073
1038.182739,94.061
1045.705933,94.05
1053.283447,94.041
1060.916016,94.032
1068.603882,94.024
1076.347412,94.017
1084.147095,94.01
1092.003296,94.006
1099.916382,94.004
1107.886841,94.005
1115.915039,94.01
1124.001343,94.018
1132.146362,94.029
1140.350342,94.041
1148.61377,94.053
1156.937134,94.062
1165.320801,94.065
1173.765137,94.06
1182.270752,94.042
1190.838013,94.007
1199.467285,93.952
1208.15918,93.878
1216.91394,93.787
1225.732178,93.685
1234.61438,93.583
1243.560913,93.488
1252.572266,93.409
1261.648926,93.349
1270.791382,93.309
1280,93.287
1289.275391,93.281
1298.618042,93.287
1308.02832,93.302
1317.506836,93.323
1327.054077,93.348
1336.67041,93.376
1346.356567,93.405
1356.112793,93.435
1365.939697,93.465
1375.837891,93.495
1385.807739,93.526
1395.849854,93.558
1405.964844,93.59
1416.152954,93.625
1426.415039,93.662
1436.751465,93.703
1447.16272,93.748
1457.649414,93.797
1468.212158,93.852
1478.85144,93.912
1489.567871,93.977
1500.361816,94.048
1511.234131,94.124
1522.185059,94.206
1533.215454,94.293
1544.325806,94.386
1555.516602,94.483
1566.788574,94.586
1578.14209,94.694
1589.578003,94.806
1601.09668,94.922
1612.698975,95.041
1624.385254,95.16
1636.15625,95.279
1648.012451,95.395
1659.95459,95.506
1671.983398,95.609
1684.099243,95.703
1696.302856,95.785
1708.594971,95.854
1720.976196,95.91
1733.447144,95.954
1746.008423,95.986
1758.660645,96.009
1771.404663,96.023
1784.240967,96.032
1797.170288,96.035
1810.193359,96.035
1823.310791,96.033
1836.523193,96.028
1849.831421,96.022
1863.236084,96.016
1876.737793,96.008
1890.337524,96.001
1904.035645,95.995
1917.833008,95.989
1931.730469,95.984
1945.728638,95.98
1959.828125,95.977
1974.029907,95.976
1988.334473,95.977
2002.742798,95.979
2017.255493,95.983
2031.873291,95.989
2046.597168,95.997
2061.427734,96.007
2076.365479,96.021
2091.411865,96.04
2106.566895,96.063
2121.832031,96.093
2137.207764,96.129
2152.694824,96.172
2168.294189,96.22
2184.006592,96.275
2199.832764,96.336
2215.773682,96.405
2231.830078,96.483
2248.002686,96.569
2264.292725,96.663
2280.700684,96.764
2297.227539,96.87
2313.874268,96.979
2330.641602,97.087
2347.530273,97.193
2364.541504,97.295
2381.676025,97.392
2398.93457,97.485
2416.318359,97.573
2433.827881,97.658
2451.464355,97.74
2469.22876,97.819
2487.121826,97.897
2505.144531,97.973
2523.297852,98.049
2541.582764,98.126
2560,98.202
2578.550781,98.279
2597.236084,98.358
2616.056641,98.438
2635.013672,98.52
2654.108154,98.606
2673.34082,98.695
2692.713135,98.79
2712.225586,98.891
2731.879395,99.003
2751.675781,99.126
2771.615479,99.264
2791.699707,99.416
2811.929688,99.58
2832.305908,99.751
2852.830078,99.921
2873.50293,100.079
2894.325439,100.216
2915.298828,100.324
2936.424316,100.4
2957.702881,100.443
2979.135742,100.457
3000.723633,100.448
3022.468262,100.42
3044.370117,100.381
3066.430908,100.335
3088.651611,100.284
3111.033203,100.229
3133.577148,100.171
3156.28418,100.11
3179.156006,100.042
3202.193359,99.968
3225.397949,99.887
3248.770508,99.798
3272.3125,99.702
3296.024902,99.598
3319.90918,99.487
3343.966797,99.369
3368.198486,99.245
3392.605713,99.113
3417.189941,98.976
3441.952393,98.834
3466.894287,98.688
3492.016846,98.54
3517.321289,98.392
3542.809326,98.243
3568.481934,98.094
3594.340576,97.942
3620.386719,97.787
3646.621582,97.625
3673.046387,97.455
3699.662842,97.276
3726.472168,97.09
3753.475586,96.898
3780.675049,96.708
3808.071289,96.523
3835.666016,96.352
3863.460938,96.2
3891.457275,96.072
3919.65625,95.971
3948.059814,95.895
3976.668945,95.842
4005.485596,95.805
4034.510986,95.779
4063.746582,95.758
4093.194336,95.735
4122.855469,95.703
4152.730957,95.656
4182.82373,95.59
4213.133789,95.499
4243.664062,95.385
4274.415527,95.249
4305.389648,95.093
4336.588379,94.917
4368.013184,94.72
4399.665527,94.496
4431.547363,94.241
4463.660156,93.951
4496.005371,93.627
4528.585449,93.278
4561.401367,92.919
4594.455078,92.576
4627.748535,92.285
4661.283203,92.09
4695.060547,92.037
4729.083008,92.163
4763.352051,92.486
4797.869141,92.995
4832.636719,93.659
4867.655762,94.431
4902.928711,95.267
4938.45752,96.126
4974.243652,96.976
5010.289062,97.795
5046.595703,98.566
5083.165527,99.278
5120,99.924
5157.101562,100.5
5194.472168,101.004
5232.113281,101.435
5270.027344,101.794
5308.216309,102.083
5346.681641,102.306
5385.42627,102.468
5424.451172,102.577
5463.758789,102.64
5503.351562,102.669
5543.230957,102.672
5583.399414,102.66
5623.859375,102.642
5664.611816,102.629
5705.660156,102.628
5747.005859,102.644
5788.650879,102.682
5830.597656,102.742
5872.848633,102.823
5915.405762,102.918
5958.271484,103.016
6001.447266,103.104
6044.936523,103.167
6088.740234,103.19
6132.861816,103.161
6177.303223,103.075
6222.066406,102.927
6267.154297,102.718
6312.568359,102.451
6358.312012,102.128
6404.386719,101.755
6450.795898,101.338
6497.541016,100.885
6544.625,100.405
6592.049805,99.906
6639.818359,99.399
6687.933594,98.893
6736.396973,98.398
6785.211426,97.922
6834.379883,97.474
6883.904785,97.062
6933.788574,96.691
6984.033691,96.37
7034.642578,96.107
7085.618652,95.911
7136.963867,95.791
7188.681152,95.757
7240.773438,95.813
7293.243164,95.959
7346.092773,96.191
7399.325684,96.499
7452.944336,96.872
7506.951172,97.294
7561.350098,97.75
7616.142578,98.226
7671.332031,98.707
7726.921875,99.179
7782.914551,99.627
7839.3125,100.038
7896.119629,100.399
7953.337891,100.699
8010.971191,100.925
8069.021973,101.068
8127.493164,101.118
8186.388672,101.072
8245.710938,100.925
8305.461914,100.683
8365.647461,100.353
8426.267578,99.953
8487.328125,99.509
8548.831055,99.055
8610.779297,98.628
8673.176758,98.262
8736.026367,97.977
8799.331055,97.775
8863.094727,97.639
8927.320312,97.543
8992.010742,97.459
9057.170898,97.365
9122.802734,97.249
9188.910156,97.109
9255.49707,96.948
9322.566406,96.777
9390.121094,96.607
9458.166016,96.452
9526.704102,96.323
9595.738281,96.229
9665.273438,96.174
9735.311523,96.156
9805.857422,96.17
9876.915039,96.207
9948.487305,96.257
10020.57813,96.314
10093.19141,96.372
10166.33106,96.426
10240,96.471
10314.20313,96.502
10388.94434,96.51
10464.22656,96.487
10540.05469,96.418
10616.43262,96.293
10693.36328,96.099
10770.85254,95.828
10848.90234,95.477
10927.51758,95.05
11006.70313,94.56
11086.46191,94.021
11166.79883,93.453
11247.71875,92.874
11329.22363,92.294
11411.32031,91.724
11494.01172,91.171
11577.30176,90.653
11661.19531,90.203
11745.69727,89.882
11830.81152,89.776
11916.54297,89.966
12002.89453,90.475
12089.87305,91.245
12177.48047,92.167
12265.72363,93.129
12354.60645,94.053
12444.13281,94.896
12534.30859,95.639
12625.13672,96.281
12716.62402,96.824
12808.77344,97.273
12901.5918,97.629
12995.08203,97.887
13089.25,98.043
13184.09961,98.09
13279.63672,98.022
13375.86719,97.84
13472.79395,97.551
13570.42285,97.168
13668.75977,96.712
13767.80957,96.206
13867.57715,95.672
13968.06738,95.127
14069.28516,94.575
14171.23731,94.01
14273.92773,93.42
14377.36231,92.797
14481.54688,92.149
14586.48633,91.503
14692.18555,90.907
14798.65137,90.419
14905.88867,90.088
15013.90234,89.936
15122.7002,89.952
15232.28516,90.094
15342.66406,90.311
15453.84375,90.556
15565.8291,90.795
15678.625,91.006
15792.23926,91.175
15906.67578,91.299
16021.94238,91.384
16138.04395,91.452
16254.98633,91.535
16372.77734,91.661
16491.42188,91.832
16610.92383,92.016
16731.29492,92.147
16852.53516,92.153
16974.65625,91.966
17097.66211,91.545
17221.55859,90.878
17346.35352,89.98
17472.05273,88.888
17598.66211,87.657
17726.18945,86.365
17854.64063,85.116
17984.02148,84.048
18114.3418,83.305
18245.60547,82.973
18377.82031,83.021
18510.99414,83.311
18645.13281,83.675
18780.24219,83.964
18916.33203,84.075
19053.4082,83.949
19191.47656,83.585
19330.54688,83.038
19470.62305,82.411
19611.71484,81.825
19753.83008,81.378
19896.97461,81.102
